Time (s)   Thrust (N)   RPM
0.00021	2.07107	3812.50000
0.03347	2.34751	4060.29900
0.06815	2.61203	4257.01500
0.10284	2.79857	4383.27800
0.13755	2.94519	4428.77400
0.17225	3.06060	4530.24200
0.20695	3.14073	4556.96200
0.24165	3.20922	4607.90100
0.27635	3.24058	4637.38200
0.31104	3.28227	4661.13300
0.34574	3.30912	4652.77800
0.38045	3.33476	4690.41100
0.41516	3.35307	4681.71300
0.44987	3.37334	4699.00300
0.48456	3.38079	4710.64800
0.51926	3.38609	4699.00300
0.55395	3.39555	4698.93300
0.58867	3.39600	4736.69000
0.62336	3.40019	4739.26400
0.65807	3.40290	4713.38200
0.69277	3.40402	4722.00900
0.72749	3.39478	4730.37300
0.76219	3.40166	4719.13300
0.79688	3.40538	4724.88500
0.83157	3.39971	4721.79900
0.86628	3.40501	4724.88500
0.90099	3.40359	4718.94000
0.93569	3.40906	4724.88500
0.97039	3.41163	4724.88500
1.00511	3.40842	4724.65700
1.03981	3.41220	4722.00900
1.07450	3.40913	4716.25800
1.10919	3.40966	4718.94000
1.14390	3.41003	4716.25800
1.17860	3.41051	4716.08200
1.21330	3.41396	4713.38200
1.24800	3.41033	4719.13300
1.28271	3.41298	4716.08200
1.31741	3.41068	4742.47600
1.35211	3.40973	4742.47600
1.38681	3.41710	4716.08200
1.42153	3.40469	4710.50600
1.45623	3.40672	4716.08200
1.49091	3.41126	4710.50600
1.52563	3.41068	4745.37000
1.56032	3.40262	4739.26400
1.59502	3.41008	4713.38200
1.62972	3.41086	4719.13300
1.66442	3.41298	4716.08200
1.69913	3.41606	4713.38200
1.73383	3.40804	4713.22400
1.76853	3.41147	4742.47600
1.80324	3.41050	4719.13300
1.83794	3.40064	4713.22400
1.87264	3.40367	4719.13300
1.90733	3.40112	4748.26400
1.94205	3.40260	4718.94000
1.97674	3.39422	4722.00900
2.01145	3.40042	4721.79900
2.04616	3.40169	4727.76000
2.08086	3.40053	4724.88500
2.11558	3.39994	4730.37300
2.15028	3.40488	4722.00900
2.18497	3.40906	4722.00900
2.21966	3.40802	4724.65700
2.25437	3.40962	4724.88500
2.28907	3.40781	4716.08200
2.32377	3.40809	4722.00900
2.35846	3.40977	4751.15700
2.39317	3.40902	4716.08200
2.42787	3.40796	4710.50600
2.46258	3.40687	4710.50600
2.49728	3.40147	4710.36500
2.53198	3.40389	4710.50600
2.56668	3.40525	4710.36500
2.60139	3.40358	4719.13300
2.63609	3.40889	4748.26400
2.67079	3.40898	4718.94000
2.70549	3.41475	4724.88500
2.74018	3.41016	4719.13300
2.77489	3.41268	4716.25800
2.85351	3.40456	4719.13300
2.88819	3.40893	4722.00900
2.92288	3.40870	4739.26400
2.95759	3.40813	4716.25800
2.99228	3.40965	4724.65700
3.02698	3.40678	4724.88500
3.06169	3.40883	4719.13300
3.09639	3.39862	4716.08200
3.13111	3.40657	4745.37000
3.16580	3.39572	4748.26400
3.24532	3.40373	4718.94000
3.28002	3.40421	4722.00900
3.31471	3.40745	4724.65700
3.34941	3.40275	4722.00900
3.38411	3.39975	4730.63600
3.41883	3.40169	4736.09000
3.45354	3.39734	4704.64900
3.48825	3.40331	4730.63600
3.52293	3.39689	4730.37300
3.55763	3.39924	4724.88500
3.59232	3.39630	4701.70400
3.62704	3.40005	4733.51200
3.66173	3.40650	4736.38800
3.69642	3.40696	4727.51500
3.73114	3.40710	4736.38800
3.76584	3.40361	4707.50700
3.80054	3.40184	4744.66400
3.83523	3.39976	4742.13900
3.86994	3.40175	4741.80600
3.90465	3.39880	4739.26400
3.93936	3.40801	4742.13900
3.97406	3.40529	4738.94800
4.00876	3.39935	4747.89100
4.04345	3.40492	4724.65700
4.07816	3.41096	4730.11400
4.11286	3.41483	4753.64300
4.14759	3.39894	4745.01500
4.27018	3.40222	4718.75000
4.30485	3.40574	4739.26400
4.33954	3.41022	4718.75000
4.37424	3.41041	4745.01500
4.40894	3.40841	4745.01500
4.44364	3.39827	4710.22700
4.47834	3.40805	4742.13900
4.51303	3.41057	4742.13900
4.54775	3.40875	4756.51800
4.58244	3.41255	4739.26400
4.61716	3.41612	4741.80600
4.65185	3.41072	4736.38800
4.68655	3.41668	4730.63600
4.72125	3.41040	4724.65700
4.75596	3.41344	4730.63600
4.79066	3.40556	4730.37300
4.82535	3.40281	4730.63600
4.86007	3.40438	4730.63600
4.89476	3.40224	4730.37300
4.92947	3.40455	4733.51200
4.96416	3.40068	4733.51200
4.99887	3.40306	4730.37300
5.03397	3.40061	4704.96900
5.06828	3.16205	4408.70000
5.10297	2.86704	4318.75000
5.13769	2.63551	4147.13500
5.17238	2.45524	4002.65900
5.20707	2.33131	3916.44000
5.24177	2.22702	3849.95300
5.27648	2.15154	3802.47200
5.31117	2.08690	3753.52400
5.34586	2.03986	3725.14100
5.38058	2.00004	3675.42600
5.41527	1.97515	3671.27800
5.44997	1.94952	3642.65200
5.48468	1.93206	3656.25000
5.51939	1.91697	3606.87000
5.55411	1.90764	3623.79800
5.58878	1.89991	3609.37500
5.62349	1.89706	3609.37500
5.65819	1.89265	3598.55700
5.69291	1.89101	3598.55700
5.72761	1.88459	3598.55700
5.76229	1.89013	3591.34600
5.79701	1.88825	3591.34600
5.83173	1.88593	3591.34600
5.86642	1.88348	3587.74000
5.90110	1.88047	3615.55200
5.93581	1.88240	3584.13400
5.97051	1.87850	3587.74000
6.00521	1.88117	3584.13400
6.03991	1.88080	3580.52800
6.07462	1.88281	3580.52800
6.10932	1.87837	3584.13400
6.14404	1.87969	3587.74000
6.22231	1.88073	3608.28500
6.25700	1.87688	3576.92300
6.29169	1.87483	3584.13400
6.32640	1.87557	3580.52800
6.36108	1.88150	3576.92300
6.39580	1.88013	3580.52800
6.43051	1.88240	3576.92300
6.46521	1.88081	3576.92300
6.49990	1.87889	3580.52800
6.53460	1.87818	3580.52800
6.56931	1.88155	3604.65100
6.60401	1.87654	3597.38300
6.63873	1.87484	3573.31700
6.67343	1.87664	3576.92300
6.70813	1.87582	3573.31700
6.74283	1.88027	3601.01700
6.77754	1.87891	3573.31700
6.81224	1.88140	3597.38300
6.84693	1.87946	3597.38300
6.88164	1.88095	3566.10500
6.91635	1.87681	3597.38300
6.95106	1.87725	3566.10500
6.98576	1.87800	3593.75000
7.02046	1.87921	3566.10500
7.05515	1.88121	3597.38300
7.08986	1.88167	3593.75000
7.12456	1.88013	3562.50000
7.15927	1.87874	3597.38300
7.19402	1.88509	3593.75000
7.27226	1.88072	3558.89400
7.30696	1.87781	3562.50000
7.34166	1.87979	3586.48200
7.37636	1.87920	3558.89400
7.41106	1.88277	3555.28800
7.44576	1.88025	3586.48200
7.48048	1.88419	3586.48200
7.51516	1.88199	3555.28800
7.54987	1.88130	3586.48200
7.58459	1.88356	3586.48200
7.61929	1.88027	3558.89400
7.65398	1.87819	3555.28800
7.68867	1.87943	3586.48200
7.72338	1.87783	3582.84900
7.75807	1.88143	3551.68200
7.79278	1.88371	3555.28800
7.82748	1.87833	3582.84900
7.86218	1.87357	3586.48200
7.89688	1.87735	3555.28800
7.93158	1.87549	3582.84900
7.96628	1.87755	3582.84900
8.00098	1.87757	3582.84900
8.03568	1.87552	3555.28800
8.07038	1.87813	3555.28800
8.10509	1.87194	3586.48200
8.13981	1.87787	3582.84900
8.17450	1.87630	3558.89400
8.20919	1.87947	3558.89400
8.24390	1.87538	3558.89400
8.27861	1.87913	3582.84900
8.31331	1.87550	3558.89400
8.34800	1.87616	3590.11600
8.38271	1.87621	3590.11600
8.41740	1.87898	3555.28800
8.45211	1.87385	3586.48200
8.48682	1.88233	3586.48200
8.52151	1.87753	3558.89400
8.55624	1.87789	3586.48200
8.59092	1.87983	3586.48200
8.62562	1.87835	3562.50000
8.66031	1.87951	3586.48200
8.69503	1.87598	3586.48200
8.72973	1.87941	3558.89400
8.76443	1.87058	3590.11600
8.79912	1.87523	3586.48200
8.83382	1.87760	3562.50000
8.86852	1.87780	3586.48200
8.90322	1.87618	3586.48200
8.93793	1.87229	3562.50000
8.97265	1.87247	3586.48200
9.00734	1.87349	3558.89400
9.04204	1.87020	3586.48200
9.07675	1.87448	3586.48200
9.11144	1.87035	3562.50000
9.14617	1.87354	3586.48200
9.18085	1.87375	3586.48200
9.21556	1.87282	3558.89400
9.25026	1.87224	3555.28800
9.28495	1.87230	3586.48200
9.31965	1.87038	3582.84900
9.35434	1.87442	3562.50000
9.38906	1.87961	3586.48200
9.42377	1.87393	3586.48200
9.45847	1.87523	3562.50000
9.49316	1.87514	3586.48200
9.52787	1.87949	3579.21500
9.56257	1.87734	3575.58100
9.59728	1.87625	3555.28800
9.63197	1.87708	3548.07700
9.66668	1.87438	3579.21500
9.70138	1.86973	3575.58100
9.73607	1.86889	3579.21500
9.77078	1.87607	3579.21500
9.80547	1.87559	3579.21500
9.84018	1.87482	3555.28800
9.87489	1.87203	3582.84900
9.90958	1.87692	3579.21500
9.94428	1.87680	3579.21500
9.97898	1.87624	3582.84900
