Time (s)   Thrust (N)   RPM
0.00025	0.91467	2494.26500
0.03335	0.85225	2426.98500
0.06799	0.76997	2325.89200
0.10275	0.72515	2241.07100
0.13749	0.66413	2163.46100
0.17225	0.62119	2120.75200
0.20699	0.59354	2058.82300
0.24175	0.52271	1968.74900
0.32056	0.49986	1931.25000
0.35531	0.47798	1903.40900
0.39006	0.46152	1865.53000
0.42482	0.45149	1832.38600
0.45957	0.43639	1817.60200
0.49433	0.42574	1775.56800
0.52910	0.41430	1779.33600
0.56385	0.40697	1755.42000
0.59859	0.39294	1741.07100
0.63335	0.38836	1721.93800
0.66811	0.38357	1730.02500
0.70286	0.37877	1698.02300
0.73762	0.37406	1705.86300
0.77238	0.36933	1696.19800
0.80712	0.36885	1686.53300
0.84188	0.35709	1676.86800
0.92049	0.35311	1684.57000
0.95525	0.34866	1657.53800
0.99000	0.34948	1657.53800
1.02476	0.34900	1652.70600
1.05951	0.34828	1669.92100
1.09426	0.34778	1669.92100
1.12903	0.35016	1647.87300
1.16377	0.34896	1655.27300
1.19853	0.34671	1660.15600
1.23328	0.34253	1655.27300
1.26803	0.34044	1650.39000
1.30279	0.34068	1650.39000
1.33754	0.34137	1633.37600
1.37229	0.34404	1650.39000
1.40704	0.34464	1650.39000
1.44181	0.33979	1650.39000
1.47655	0.33853	1633.37600
1.51131	0.33789	1650.39000
1.54607	0.33734	1645.50700
1.58082	0.34047	1650.39000
1.61558	0.34050	1640.62500
1.65033	0.34114	1645.50700
1.68509	0.33833	1640.62500
1.71983	0.33703	1645.50700
1.75458	0.33508	1645.50700
1.78934	0.33748	1640.62500
1.82409	0.34046	1640.62500
1.85884	0.34128	1640.62500
1.89360	0.33918	1645.50700
1.92835	0.33858	1640.62500
1.96311	0.33641	1640.62500
1.99786	0.33829	1640.62500
2.03262	0.34166	1645.50700
2.06737	0.34074	1640.62500
2.10212	0.34448	1640.62500
2.18051	0.33837	1645.50700
2.21526	0.34145	1645.50700
2.25001	0.33896	1645.50700
2.28476	0.33872	1645.50700
2.31952	0.33633	1640.62500
2.35427	0.33453	1640.62500
2.38904	0.34654	1628.54300
2.46741	0.33923	1645.50700
2.54724	0.34111	1635.74200
2.58198	0.34204	1640.62500
2.61673	0.34032	1645.50700
2.65148	0.33683	1640.62500
2.68623	0.33523	1640.62500
2.72098	0.33593	1645.50700
2.75573	0.33960	1623.71100
2.79050	0.33901	1640.62500
2.82525	0.33939	1640.62500
2.85999	0.33737	1640.62500
2.89475	0.33337	1635.74200
2.92950	0.33733	1640.62500
2.96427	0.33930	1635.74200
2.99901	0.34145	1635.74200
3.03377	0.34086	1635.74200
3.06853	0.33722	1635.74200
3.10328	0.33677	1635.74200
3.13804	0.33704	1640.62500
3.17278	0.34006	1640.62500
3.20754	0.34276	1635.74200
3.24230	0.33696	1623.71100
3.32067	0.33955	1640.62500
3.35542	0.34238	1640.62500
3.39017	0.34083	1640.62500
3.42493	0.33744	1640.62500
3.45968	0.33533	1640.62500
3.49445	0.33672	1618.87800
3.52919	0.33703	1640.62500
3.56395	0.34100	1640.62500
3.59869	0.33928	1635.74200
3.63346	0.33945	1635.74200
3.66820	0.33469	1640.62500
3.70296	0.33587	1635.74200
3.73771	0.33686	1640.62500
3.77248	0.33980	1635.74200
3.80722	0.34019	1640.62500
3.84197	0.34050	1635.74200
3.87673	0.33609	1640.62500
3.91149	0.33718	1640.62500
3.94623	0.33856	1635.74200
3.98099	0.34149	1645.50700
4.01574	0.34084	1635.74200
4.05049	0.33933	1623.71100
4.08525	0.33618	1618.87800
4.12001	0.33473	1635.74200
4.15476	0.33736	1635.74200
4.18951	0.33918	1635.74200
4.22425	0.33870	1635.74200
4.25902	0.33769	1635.74200
4.29377	0.34085	1618.87800
4.37266	0.34040	1635.74200
4.40741	0.33722	1635.74200
4.44218	0.33413	1640.62500
4.47693	0.33379	1630.85900
4.51167	0.33476	1618.87800
4.54642	0.33842	1618.87800
4.58118	0.34167	1630.85900
4.61592	0.34122	1640.62500
4.65068	0.33867	1635.74200
4.68544	0.33644	1635.74200
4.72019	0.33865	1635.74200
4.75494	0.33979	1635.74200
4.78969	0.33942	1630.85900
4.82445	0.33876	1618.87800
4.85920	0.33545	1635.74200
4.89397	0.34018	1618.87800
4.97290	0.33861	1635.74200
5.00765	0.33798	1630.85900
5.04240	0.33583	1630.85900
5.07717	0.33653	1630.85900
5.11192	0.33622	1635.74200
5.14667	0.33970	1635.74200
5.18143	0.33749	1630.85900
5.21617	0.33595	1618.87800
5.25093	0.33606	1630.85900
5.28569	0.33438	1630.85900
5.32044	0.33733	1630.85900
5.35520	0.33983	1630.85900
5.38995	0.33932	1630.85900
5.42472	0.33659	1630.85900
5.45947	0.33477	1614.04600
5.49422	0.33856	1630.85900
5.52898	0.33858	1630.85900
5.56373	0.34037	1618.87800
5.59848	0.33642	1635.74200
5.63324	0.33501	1630.85900
5.66799	0.33304	1635.74200
5.70276	0.33734	1614.04600
5.73751	0.33787	1635.74200
5.77225	0.33804	1635.74200
5.80701	0.33597	1635.74200
5.84178	0.33404	1630.85900
5.87651	0.33537	1635.74200
5.91127	0.33934	1625.97600
5.94603	0.34083	1630.85900
5.98079	0.33664	1630.85900
0.00022	0.34828	1710.69500
0.03461	0.43964	1903.12500
0.06932	0.52535	2068.01400
0.10407	0.59639	2157.16000
0.13883	0.66378	2258.92800
0.17358	0.73630	2339.28500
0.20833	0.78286	2409.46200
0.24308	0.81947	2443.57600
0.27783	0.86803	2481.36400
0.31259	0.90267	2545.87100
0.34735	0.93379	2561.07900
0.38210	0.95019	2612.21500
0.41686	0.97391	2614.02000
0.45161	0.99147	2643.58100
0.48636	1.01710	2673.14100
0.52111	1.02881	2681.58800
0.55588	1.02514	2666.01500
0.59062	1.03845	2706.92500
0.62537	1.05025	2719.59400
0.66012	1.06462	2699.49700
0.69489	1.04803	2707.86800
0.72963	1.06807	2712.05300
0.76438	1.05172	2720.42400
0.79914	1.07478	2724.60900
0.83389	1.06303	2728.79400
0.86865	1.06954	2728.79400
0.90340	1.07143	2728.79400
0.93816	1.06386	2728.79400
0.97291	1.07148	2704.64600
1.00767	1.06617	2704.64600
1.04242	1.07767	2704.64600
1.07718	1.07596	2712.94200
1.15621	1.07980	2712.94200
1.19097	1.07851	2741.35000
1.22573	1.07205	2737.16500
1.26047	1.08431	2741.35000
1.29523	1.08162	2721.23900
1.32998	1.08148	2712.94200
1.36473	1.07319	2737.16500
1.39949	1.07158	2732.98000
1.43423	1.07363	2737.16500
1.46899	1.07063	2732.98000
1.50376	1.07988	2737.16500
1.53851	1.07596	2732.98000
1.57325	1.07807	2728.79400
1.60801	1.06795	2737.16500
1.64277	1.07251	2732.98000
1.67753	1.08210	2732.98000
1.71228	1.06514	2732.98000
1.74703	1.07670	2741.35000
1.78179	1.06603	2732.98000
1.81655	1.07563	2737.16500
1.85130	1.08107	2712.94200
1.92973	1.07548	2741.35000
1.96445	1.08477	2745.53500
1.99919	1.06884	2717.09000
2.03394	1.07629	2717.09000
2.06870	1.07711	2745.53500
2.14785	1.07838	2725.38700
2.18265	1.07918	2745.53500
2.26100	1.07125	2721.23900
2.29575	1.08531	2741.35000
2.33051	1.07540	2741.35000
2.36526	1.08132	2717.09000
2.40002	1.08476	2725.38700
2.47859	1.08535	2758.09100
2.51333	1.08527	2729.53500
2.54809	1.08311	2749.72100
2.58285	1.09013	2725.38700
2.61759	1.08221	2749.72100
2.65235	1.07903	2721.23900
2.68711	1.07545	2717.09000
2.72186	1.07520	2741.35000
2.75661	1.08771	2729.53500
2.79137	1.07529	2721.23900
2.82613	1.08573	2745.53500
2.86088	1.07733	2717.09000
2.89564	1.07740	2717.09000
2.93039	1.07588	2749.72100
2.96514	1.07890	2721.23900
2.99990	1.08920	2725.38700
3.03464	1.07962	2725.38700
3.06941	1.08298	2733.68300
3.10415	1.07794	2729.53500
3.13890	1.07976	2758.09100
3.17365	1.08311	2762.27600
3.20841	1.08484	2737.83100
3.24317	1.08966	2737.83100
3.27792	1.08072	2749.72100
3.31267	1.07991	2733.68300
3.34743	1.08112	2729.53500
3.38220	1.07677	2753.90600
3.41695	1.08786	2737.83100
3.45170	1.08910	2737.83100
3.48646	1.08414	2758.09100
3.52121	1.08330	2737.83100
3.55597	1.08866	2741.98000
3.59072	1.08666	2737.83100
3.62548	1.08226	2733.68300
3.66025	1.08094	2758.09100
3.69499	1.08132	2737.83100
3.72974	1.08398	2737.83100
3.76449	1.08337	2733.68300
3.79926	1.07621	2758.09100
3.83401	1.07865	2733.68300
3.86877	1.07718	2729.53500
3.90352	1.08166	2762.27600
3.93829	1.08274	2729.53500
3.97303	1.07801	2737.83100
4.00778	1.08099	2737.83100
4.04255	1.07380	2762.27600
4.07730	1.08171	2762.27600
4.11206	1.08070	2741.98000
4.14681	1.08273	2746.12800
4.18157	1.09225	2770.64700
4.26012	1.08230	2762.27600
4.29489	1.07779	2766.46200
4.32965	1.07237	2737.83100
4.36440	1.08406	2737.83100
4.39915	1.08535	2737.83100
4.43391	1.07447	2762.27600
4.46867	1.07715	2766.46200
4.50342	1.07689	2737.83100
4.53817	1.07835	2737.83100
4.57293	1.08159	2741.98000
4.60769	1.07685	2741.98000
4.64244	1.08321	2746.12800
4.67721	1.08620	2741.98000
4.71195	1.08609	2746.12800
4.74671	1.08148	2746.12800
4.78146	1.08351	2741.98000
4.81622	1.09070	2746.12800
4.85097	1.08787	2746.12800
4.88573	1.08771	2746.12800
4.92049	1.08257	2746.12800
4.95525	1.07980	2746.12800
4.99001	1.08636	2746.12800
5.02476	1.08172	2746.12800
5.10418	1.08693	2741.98000
5.13893	1.08583	2733.68300
5.17368	1.07633	2737.83100
5.20844	1.08183	2737.83100
5.24320	1.07703	2741.98000
5.27795	1.08484	2741.98000
5.31271	1.08111	2762.27600
5.34747	1.08336	2762.27600
5.38222	1.08336	2733.68300
5.41697	1.08046	2733.68300
5.45173	1.07903	2733.68300
5.48648	1.07655	2762.27600
5.52124	1.08044	2729.53500
5.55599	1.07679	2733.68300
5.59074	1.08153	2762.27600
5.62550	1.08050	2733.68300
5.66026	1.07721	2729.53500
5.69501	1.08163	2762.27600
5.72976	1.08356	2737.83100
5.76453	1.07981	2733.68300
5.79928	1.08245	2733.68300
5.83404	1.07418	2737.83100
5.86879	1.07757	2758.09100
5.90356	1.07851	2729.53500
5.98340	1.08167	2753.90600
